"Freq [GHz]","mag(S(2,1)) []"
0.1,0.999547113725097
0.102902902902903,0.999533650242289
0.105805805805806,0.999519799143058
0.108708708708709,0.999505560213306
0.111611611611612,0.999490933231194
0.114514514514515,0.999475917966999
0.117417417417417,0.999460514182971
0.12032032032032,0.999444721633177
0.123223223223223,0.999428540063357
0.126126126126126,0.999411969210764
0.129029029029029,0.999395008804003
0.131931931931932,0.999377658562879
0.134834834834835,0.999359918198221
0.137737737737738,0.999341787411723
0.140640640640641,0.99932326589577
0.143543543543544,0.999304353333266
0.146446446446446,0.999285049397458
0.149349349349349,0.999265353751758
0.152252252252252,0.99924526604956
0.155155155155155,0.999224785934059
0.158058058058058,0.999203913038063
0.160960960960961,0.999182646983804
0.163863863863864,0.999160987382749
0.166766766766767,0.999138933835403
0.16966966966967,0.999116485931116
0.172572572572573,0.999093643247887
0.175475475475475,0.999070405352157
0.178378378378378,0.999046771798614
0.181281281281281,0.999022742129984
0.184184184184184,0.998998315876828
0.187087087087087,0.998973492557332
0.18998998998999,0.998948271677099
0.192892892892893,0.998922652728934
0.195795795795796,0.998896635192634
0.198698698698699,0.998870218534774
0.201601601601602,0.998843402208486
0.204504504504505,0.998816185653246
0.207407407407407,0.998788568294653
0.21031031031031,0.998760549544206
0.213213213213213,0.998732128799089
0.216116116116116,0.998703305441938
0.219019019019019,0.99867407884063
0.221921921921922,0.998644448348046
0.224824824824825,0.998614413301852
0.227727727727728,0.998583973024271
0.230630630630631,0.998553126821855
0.233533533533534,0.998521873985258
0.236436436436436,0.998490213789007
0.239339339339339,0.998458145491272
0.242242242242242,0.998425668333637
0.245145145145145,0.99839278154087
0.248048048048048,0.998359484320695
0.250950950950951,0.998325775863559
0.253853853853854,0.998291655342401
0.256756756756757,0.998257121912426
0.25965965965966,0.998222174710869
0.262562562562563,0.998186812856771
0.265465465465465,0.998151035450745
0.268368368368368,0.998114841574745
0.271271271271271,0.998078230291844
0.274174174174174,0.998041200645997
0.277077077077077,0.998003751661821
0.27997997997998,0.997965882344362
0.282882882882883,0.997927591678871
0.285785785785786,0.997888878630579
0.288688688688689,0.997849742144472
0.291591591591592,0.997810181145068
0.294494494494495,0.997770194536192
0.297397397397397,0.997729781200762
0.3003003003003,0.997688940000562
0.303203203203203,0.997647669776026
0.306106106106106,0.997605969346025
0.309009009009009,0.997563837507648
0.311911911911912,0.997521273035991
0.314814814814815,0.997478274683944
0.317717717717718,0.997434841181983
0.320620620620621,0.997390971237962
0.323523523523523,0.997346663536908
0.326426426426427,0.997301916740819
0.329329329329329,0.99725672948846
0.332232232232232,0.997211100395168
0.335135135135135,0.997165028052655
0.338038038038038,0.997118511028813
0.340940940940941,0.997071547867528
0.343843843843844,0.997024137088488
0.346746746746747,0.996976277186999
0.34964964964965,0.996927966633806
0.352552552552553,0.99687920387491
0.355455455455456,0.996829987331395
0.358358358358358,0.996780315399256
0.361261261261261,0.996730186449229
0.364164164164164,0.996679598826626
0.367067067067067,0.996628550851175
0.36996996996997,0.996577040816858
0.372872872872873,0.996525066991759
0.375775775775776,0.996472627617916
0.378678678678679,0.996419720911169
0.381581581581582,0.996366345061022
0.384484484484484,0.996312498230504
0.387387387387387,0.996258178556033
0.39029029029029,0.99620338414729
0.393193193193193,0.996148113087091
0.396096096096096,0.996092363431268
0.398998998998999,0.99603613320855
0.401901901901902,0.995979420420459
0.404804804804805,0.995922223041196
0.407707707707708,0.995864539017547
0.410610610610611,0.995806366268778
0.413513513513514,0.995747702686553
0.416416416416416,0.995688546134843
0.419319319319319,0.995628894449849
0.422222222222222,0.995568745439923
0.425125125125125,0.995508096885503
0.428028028028028,0.995446946539044
0.430930930930931,0.995385292124967
0.433833833833834,0.995323131339602
0.436736736736737,0.995260461851141
0.43963963963964,0.995197281299604
0.442542542542543,0.995133587296797
0.445445445445446,0.99506937742629
0.448348348348348,0.995004649243395
0.451251251251251,0.994939400275146
0.454154154154154,0.994873628020299
0.457057057057057,0.994807329949321
0.45995995995996,0.994740503504401
0.462862862862863,0.99467314609946
0.465765765765766,0.994605255120167
0.468668668668669,0.994536827923968
0.471571571571572,0.994467861840116
0.474474474474475,0.994398354169709
0.477377377377377,0.994328302185744
0.48028028028028,0.994257703133162
0.483183183183183,0.994186554228914
0.486086086086086,0.994114852662031
0.488988988988989,0.994042595593697
0.491891891891892,0.993969780157338
0.494794794794795,0.993896403458708
0.497697697697698,0.993822462575994
0.500600600600601,0.993747954559921
0.503503503503504,0.99367287643387
0.506406406406406,0.993597225193997
0.509309309309309,0.993520997809368
0.512212212212212,0.993444191222103
0.515115115115115,0.993366802347516
0.518018018018018,0.993288828074277
0.520920920920921,0.993210265264579
0.523823823823824,0.993131110754304
0.526726726726727,0.993051361353215
0.52962962962963,0.992971013845139
0.532532532532533,0.992890064988172
0.535435435435435,0.992808511514885
0.538338338338338,0.992726350132541
0.541241241241241,0.992643577523322
0.544144144144144,0.992560190344565
0.547047047047047,0.992476185229006
0.54994994994995,0.992391558785034
0.552852852852853,0.992306307596948
0.555755755755756,0.99222042822524
0.558658658658659,0.992133917206865
0.561561561561562,0.992046771055538
0.564464464464465,0.991958986262033
0.567367367367367,0.99187055929449
0.57027027027027,0.991781486598735
0.573173173173173,0.99169176459861
0.576076076076076,0.991601389696307
0.578978978978979,0.991510358272719
0.581881881881882,0.991418666687799
0.584784784784785,0.991326311280919
0.587687687687688,0.991233288371255
0.590590590590591,0.991139594258169
0.593493493493494,0.991045225221606
0.596396396396396,0.990950177522501
0.599299299299299,0.990854447403194
0.602202202202202,0.990758031087855
0.605105105105105,0.990660924782922
0.608008008008008,0.990563124677544
0.610910910910911,0.990464626944039
0.613813813813814,0.990365427738358
0.616716716716717,0.99026552320056
0.61961961961962,0.990164909455298
0.622522522522523,0.990063582612317
0.625425425425425,0.989961538766954
0.628328328328328,0.989858774000659
0.631231231231231,0.989755284381518
0.634134134134134,0.989651065964785
0.637037037037037,0.989546114793436
0.63993993993994,0.989440426898715
0.642842842842843,0.989333998300706
0.645745745745746,0.989226825008904
0.648648648648649,0.989118903022803
0.651551551551552,0.989010228332491
0.654454454454454,0.98890079691925
0.657357357357357,0.98879060475618
0.66026026026026,0.988679647808815
0.663163163163163,0.98856792203576
0.666066066066066,0.988455423389339
0.668968968968969,0.988342147816243
0.671871871871872,0.988228091258198
0.674774774774775,0.988113249652634
0.677677677677678,0.98799761893337
0.680580580580581,0.987881195031308
0.683483483483484,0.98776397387513
0.686386386386386,0.987645951392012
0.689289289289289,0.987527123508343
0.692192192192192,0.987407486150454
0.695095095095095,0.987287035245358
0.697997997997998,0.987165766721496
0.700900900900901,0.987043676509494
0.703803803803804,0.98692076054293
0.706706706706707,0.986797014759106
0.70960960960961,0.986672435099831
0.712512512512513,0.986547017512214
0.715415415415415,0.986420757949463
0.718318318318318,0.986293652371696
0.721221221221221,0.986165696746751
0.724124124124124,0.986036887051021
0.727027027027027,0.985907219270276
0.72992992992993,0.985776689400514
0.732832832832833,0.9856452934488
0.735735735735736,0.985513027434133
0.738638638638639,0.985379887388298
0.741541541541542,0.985245869356746
0.744444444444444,0.985110969399472
0.747347347347347,0.984975183591892
0.75025025025025,0.984838508025748
0.753153153153153,0.984700938809995
0.756056056056056,0.984562472071717
0.758958958958959,0.984423103957034
0.761861861861862,0.984282830632018
0.764764764764765,0.984141648283626
0.767667667667668,0.98399955312062
0.770570570570571,0.983856541374514
0.773473473473474,0.983712609300507
0.776376376376376,0.983567753178433
0.779279279279279,0.983421969313717
0.782182182182182,0.983275254038326
0.785085085085085,0.983127603711736
0.787987987987988,0.982979014721896
0.790890890890891,0.982829483486196
0.793793793793794,0.982679006452449
0.796696696696697,0.982527580099864
0.7995995995996,0.982375200940029
0.802502502502503,0.982221865517899
0.805405405405406,0.982067570412782
0.808308308308308,0.981912312239335
0.811211211211211,0.981756087648552
0.814114114114114,0.981598893328769
0.817017017017017,0.981440726006656
0.81991991991992,0.98128158244822
0.822822822822823,0.981121459459812
0.825725725725726,0.980960353889125
0.828628628628629,0.980798262626202
0.831531531531532,0.980635182604444
0.834434434434435,0.980471110801613
0.837337337337337,0.980306044240838
0.84024024024024,0.980139979991631
0.843143143143143,0.979972915170881
0.846046046046046,0.979804846943869
0.848948948948949,0.979635772525272
0.851851851851852,0.979465689180165
0.854754754754755,0.979294594225022
0.857657657657658,0.979122485028723
0.860560560560561,0.97894935901355
0.863463463463463,0.978775213656181
0.866366366366366,0.978600046488689
0.869269269269269,0.978423855099526
0.872172172172172,0.97824663713452
0.875075075075075,0.978068390297851
0.877977977977978,0.977889112353035
0.880880880880881,0.9777088011239
0.883783783783784,0.977527454495556
0.886686686686687,0.977345070415361
0.88958958958959,0.977161646893885
0.892492492492493,0.976977182005864
0.895395395395395,0.976791673891148
0.898298298298298,0.976605120755649
0.901201201201201,0.976417520872273
0.904104104104104,0.976228872581855
0.907007007007007,0.976039174294079
0.90990990990991,0.975848424488393
0.912812812812813,0.975656621714919
0.915715715715716,0.975463764595352
0.918618618618619,0.975269851823845
0.921521521521522,0.975074882167901
0.924424424424425,0.974878854469238
0.927327327327327,0.974681767644653
0.93023023023023,0.974483620686878
0.933133133133133,0.974284412665421
0.936036036036036,0.974084142727397
0.938938938938939,0.973882810098353
0.941841841841842,0.973680414083074
0.944744744744745,0.973476954066383
0.947647647647648,0.97327242951393
0.950550550550551,0.973066839972962
0.953453453453454,0.972860185073087
0.956356356356356,0.972652464527025
0.959259259259259,0.972443678131338
0.962162162162162,0.972233825767156
0.965065065065065,0.972022907400886
0.967967967967968,0.971810923084902
0.970870870870871,0.971597872958228
0.973773773773774,0.971383757247198
0.976676676676677,0.971168576266111
0.97957957957958,0.970952330417861
0.982482482482483,0.970735020194555
0.985385385385385,0.970516646178119
0.988288288288288,0.970297209040877
0.991191191191191,0.970076709546129
0.994094094094094,0.969855148548692
0.996996996996997,0.969632526995444
0.9998998998999,0.969408845925838
1.0028028028028,0.969190002293166
1.00570570570571,0.96897051480362
1.00860860860861,0.968750181586007
1.01151151151151,0.968529007900183
1.01441441441441,0.968306999083993
1.01731731731732,0.968084160552981
1.02022022022022,0.967860497800084
1.02312312312312,0.967636016395325
1.02602602602603,0.967410721985487
1.02892892892893,0.967184620293781
1.03183183183183,0.966957717119505
1.03473473473473,0.966730018337687
1.03763763763764,0.966501529898725
1.04054054054054,0.966272257828014
1.04344344344344,0.966042208225561
1.04634634634635,0.965811387265592
1.04924924924925,0.965579801196152
1.05215215215215,0.965347456338689
1.05505505505506,0.965114359087633
1.05795795795796,0.964880515909963
1.06086086086086,0.964645933344767
1.06376376376376,0.96441061800279
1.06666666666667,0.964174576565972
1.06956956956957,0.96393781578698
1.07247247247247,0.963700342488724
1.07537537537538,0.963462163563876
1.07827827827828,0.963223285974363
1.08118118118118,0.962983716750867
1.08408408408408,0.962743462992305
1.08698698698699,0.962502531865304
1.08988988988989,0.962260930603669
1.09279279279279,0.962018666507838
1.0956956956957,0.961775746944334
1.0985985985986,0.961532179345198
1.1015015015015,0.961287971207427
1.1044044044044,0.961043130092394
1.10730730730731,0.960797663625263
1.11021021021021,0.960551579494394
1.11311311311311,0.960304885450742
1.11601601601602,0.960057589307247
1.11891891891892,0.959809698938216
1.12182182182182,0.959561222278696
1.12472472472473,0.959312167323843
1.12762762762763,0.959062542128276
1.13053053053053,0.958812354805431
1.13343343343343,0.958561613526906
1.13633633633634,0.958310326521792
1.13923923923924,0.958058502076009
1.14214214214214,0.957806148531621
1.14504504504505,0.957553274286153
1.14794794794795,0.957299887791899
1.15085085085085,0.957045997555226
1.15375375375375,0.95679161213586
1.15665665665666,0.956536740146182
1.15955955955956,0.956281390250503
1.16246246246246,0.956025571164342
1.16536536536537,0.955769291653694
1.16826826826827,0.95551256053429
1.17117117117117,0.955255386670854
1.17407407407407,0.954997778976355
1.17697697697698,0.954739746411248
1.17987987987988,0.954481297982717
1.18278278278278,0.954222442743904
1.18568568568569,0.953963189793139
1.18858858858859,0.95370354827316
1.19149149149149,0.953443527370333
1.19439439439439,0.953183136313863
1.1972972972973,0.952922384375
1.2002002002002,0.952661280866241
1.2031031031031,0.952399835140529
1.20600600600601,0.952138056590445
1.20890890890891,0.951875954647397
1.21181181181181,0.951613538780801
1.21471471471471,0.951350818497266
1.21761761761762,0.951087803339764
1.22052052052052,0.950824502886808
1.22342342342342,0.950560926751612
1.22632632632633,0.950297084581262
1.22922922922923,0.950032986055872
1.23213213213213,0.949768640887745
1.23503503503504,0.949504058820522
1.23793793793794,0.949239249628335
1.24084084084084,0.948974223114954
1.24374374374374,0.948708989112932
1.24664664664665,0.948443557482745
1.24954954954955,0.94817793811193
1.25245245245245,0.947912140914222
1.25535535535536,0.94764617582869
1.25825825825826,0.947380052818865
1.26116116116116,0.947113781871867
1.26406406406406,0.946847372997538
1.26696696696697,0.946580836227561
1.26986986986987,0.946314181614587
1.27277277277277,0.946047419231353
1.27567567567568,0.945780559169805
1.27857857857858,0.94551361154021
1.28148148148148,0.945246586470279
1.28438438438438,0.944979494104281
1.28728728728729,0.944712344602154
1.29019019019019,0.944445148138621
1.29309309309309,0.9441779149023
1.295995995996,0.94391065509482
1.2988988988989,0.943643378929925
1.3018018018018,0.943376096632591
1.3047047047047,0.94310881843813
1.30760760760761,0.942841554591302
1.31051051051051,0.942574315345426
1.31341341341341,0.942307110961486
1.31631631631632,0.94203995170724
1.31921921921922,0.941772847856333
1.32212212212212,0.941505809687402
1.32502502502503,0.941238847483187
1.32792792792793,0.940971971529644
1.33083083083083,0.940705192115052
1.33373373373373,0.940438519529124
1.33663663663664,0.940171964062127
1.33953953953954,0.939905536003982
1.34244244244244,0.939639245643391
1.34534534534535,0.939373103266944
1.34824824824825,0.939107119158236
1.35115115115115,0.938841303596989
1.35405405405405,0.938575666858168
1.35695695695696,0.9383102192111
1.35985985985986,0.9380449709186
1.36276276276276,0.937779932236089
1.36566566566567,0.937515113410726
1.36856856856857,0.937250524680534
1.37147147147147,0.936986176273523
1.37437437437437,0.936722078406828
1.37727727727728,0.936458241285844
1.38018018018018,0.936194675103354
1.38308308308308,0.935931390038673
1.38598598598599,0.935668396256789
1.38888888888889,0.935405703907502
1.39179179179179,0.935143323124574
1.3946946946947,0.934881264024873
1.3975975975976,0.934619536707528
1.4005005005005,0.93435815125308
1.4034034034034,0.934097117722641
1.40630630630631,0.933836446157053
1.40920920920921,0.933576146576049
1.41211211211211,0.933316228977424
1.41501501501502,0.933056703336198
1.41791791791792,0.932797579603792
1.42082082082082,0.932538867707206
1.42372372372372,0.932280577548195
1.42662662662663,0.932022719002452
1.42952952952953,0.931765301918797
1.43243243243243,0.931508336118365
1.43533533533534,0.9312518313938
1.43823823823824,0.930995797508455
1.44114114114114,0.93074024419559
1.44404404404404,0.930485181157581
1.44694694694695,0.930230618065128
1.44984984984985,0.929976564556466
1.45275275275275,0.929723030236586
1.45565565565566,0.929470024676456
1.45855855855856,0.929217557412247
1.46146146146146,0.92896563794456
1.46436436436436,0.928714275737665
1.46726726726727,0.928463480218738
1.47017017017017,0.928213260777104
1.47307307307307,0.927963626763484
1.47597597597598,0.927714587489251
1.47887887887888,0.92746615222568
1.48178178178178,0.927218330203219
1.48468468468468,0.926971130610744
1.48758758758759,0.926724562594839
1.49049049049049,0.926478635259069
1.49339339339339,0.926233357663256
1.4962962962963,0.925988738822771
1.4991991991992,0.925744787707819
1.5021021021021,0.925501513242737
1.50500500500501,0.92525892430529
1.50790790790791,0.925017029725982
1.51081081081081,0.92477583828736
1.51371371371371,0.924535358723333
1.51661661661662,0.924295599718489
1.51951951951952,0.924056569907421
1.52242242242242,0.923818277874059
1.52532532532533,0.923580732151005
1.52822822822823,0.923343941218871
1.53113113113113,0.923107913505628
1.53403403403403,0.922872657385954
1.53693693693694,0.922638181180594
1.53983983983984,0.92240449315572
1.54274274274274,0.922171601522295
1.54564564564565,0.921939514435452
1.54854854854855,0.921708239993866
1.55145145145145,0.921477786239138
1.55435435435435,0.921248161155186
1.55725725725726,0.921019372667636
1.56016016016016,0.920791428643225
1.56306306306306,0.920564336889201
1.56596596596597,0.920338105152737
1.56886886886887,0.920112741120345
1.57177177177177,0.919888252417298
1.57467467467467,0.919664646607057
1.57757757757758,0.919441931190702
1.58048048048048,0.91922011360637
1.58338338338338,0.918999201228701
1.58628628628629,0.918779201368283
1.58918918918919,0.91856012127111
1.59209209209209,0.918341968118039
1.594994994995,0.918124749024257
1.5978978978979,0.917908471038752
1.6008008008008,0.917693141143793
1.6037037037037,0.917478766254404
1.60660660660661,0.917265353217861
1.60950950950951,0.917052908813182
1.61241241241241,0.916841439750625
1.61531531531532,0.916630952671195
1.61821821821822,0.916421454146151
1.62112112112112,0.916212950676528
1.62402402402402,0.916005448692651
1.62692692692693,0.91579895455367
1.62982982982983,0.915593474547088
1.63273273273273,0.915389014888298
1.63563563563564,0.915185581720134
1.63853853853854,0.914983181112414
1.64144144144144,0.914781819061499
1.64434434434434,0.914581501489852
1.64724724724725,0.914382234245605
1.65015015015015,0.914184023102134
1.65305305305305,0.913986873757632
1.65595595595596,0.913790791834694
1.65885885885886,0.91359578287991
1.66176176176176,0.913401852363452
1.66466466466467,0.913209005678682
1.66756756756757,0.913017248141751
1.67047047047047,0.912826584991217
1.67337337337337,0.912637021387654
1.67627627627628,0.91244856241328
1.67917917917918,0.912261213071584
1.68208208208208,0.91207497828696
1.68498498498499,0.911889862904344
1.68788788788789,0.911705871688858
1.69079079079079,0.911523009325466
1.69369369369369,0.91134128041862
1.6965965965966,0.911160689491933
1.6994994994995,0.910981240987833
1.7024024024024,0.910802939267246
1.70530530530531,0.910625788609269
1.70820820820821,0.91044979321085
1.71111111111111,0.910274957186483
1.71401401401401,0.910101284567899
1.71691691691692,0.909928779303766
1.71981981981982,0.909757445259392
1.72272272272272,0.909587286216437
1.72562562562563,0.909418305872635
1.72852852852853,0.909250507841502
1.73143143143143,0.909083895652075
1.73433433433433,0.908918472748639
1.73723723723724,0.908754242490466
